 2    ,gms_05_imager_02.flt
Number of data points:
81
Wavenumber (cm-1)   Filter response
      789.764700       0.000000
      791.891000       0.001000
      794.028900       0.001000
      796.115000       0.001000
      798.275700       0.000000
      800.384200       0.001000
      802.503800       0.001000
      804.634700       0.001000
      806.711800       0.009000
      808.865200       0.034000
      810.964200       0.075000
      813.074200       0.127000
      815.195200       0.202000
      817.327300       0.283000
      819.470600       0.361000
      821.557700       0.432000
      823.655400       0.495000
      825.832000       0.559000
      827.951600       0.617000
      830.013300       0.667000
      832.154400       0.680000
      834.306700       0.698000
      836.400100       0.723000
      838.504100       0.762000
      840.618700       0.739000
      842.744000       0.738000
      844.880000       0.762000
      847.026900       0.774000
      849.112700       0.804000
      851.208700       0.788000
      853.388000       0.811000
      855.505200       0.809000
      857.559400       0.812000
      859.697400       0.832000
      861.846100       0.853000
      863.930900       0.875000
      866.100800       0.917000
      868.206300       0.963000
      870.322000       0.979000
      872.448100       0.997000
      874.584600       1.000000
      876.654700       0.972000
      878.811800       0.934000
      880.902000       0.906000
      883.002200       0.879000
      885.112400       0.843000
      887.232700       0.818000
      889.363200       0.806000
      891.504000       0.780000
      893.655000       0.769000
      895.736300       0.745000
      897.827300       0.742000
      900.009000       0.734000
      902.120000       0.711000
      904.240900       0.695000
      906.371800       0.656000
      908.430200       0.620000
      910.581000       0.592000
      912.741900       0.546000
      914.829400       0.492000
      916.926500       0.423000
      919.033200       0.352000
      921.149600       0.278000
      923.275800       0.215000
      925.411800       0.161000
      927.557700       0.112000
      929.627200       0.072000
      931.792800       0.046000
      933.881200       0.025000
      935.979000       0.011000
      938.174300       0.002000
      940.291500       0.001000
      942.418200       0.001000
      944.465400       0.001000
      946.611100       0.001000
      948.766600       0.001000
      950.841500       0.000000
      953.016300       0.000000
      955.109800       0.001000
      957.212600       0.001000
      959.324600       0.000000
