   8  ,noaa_14_hirs_08.flt
Number of data points:
101
Wavenumber (cm-1)   Filter response
      858.930000       0.000000
      859.620000       0.000000
      860.320000       0.000000
      861.010000       0.000000
      861.710000       0.000000
      862.400000       0.000000
      863.090000       0.000524
      863.790000       0.000575
      864.490000       0.000635
      865.180000       0.000691
      865.870000       0.000743
      866.570000       0.000796
      867.260000       0.004604
      867.960000       0.004672
      868.650000       0.004721
      869.360000       0.008383
      870.060000       0.011139
      870.760000       0.013433
      871.460000       0.018443
      872.160000       0.022525
      872.870000       0.029827
      873.570000       0.037648
      874.260000       0.047444
      874.960000       0.054552
      875.660000       0.072369
      876.360000       0.092066
      877.050000       0.116220
      877.790000       0.154290
      878.480000       0.188310
      879.180000       0.241870
      879.850000       0.301400
      880.580000       0.371440
      881.270000       0.441530
      881.960000       0.517830
      882.650000       0.584000
      883.350000       0.644130
      884.070000       0.692550
      884.760000       0.731090
      885.460000       0.765610
      886.160000       0.781420
      886.850000       0.799650
      887.560000       0.809240
      888.260000       0.825880
      888.980000       0.835960
      889.680000       0.855960
      890.380000       0.867710
      891.080000       0.884470
      891.780000       0.900450
      892.480000       0.919210
      893.170000       0.932680
      893.870000       0.951530
      894.620000       0.967850
      895.320000       0.971600
      896.030000       0.977960
      896.730000       0.979140
      897.440000       0.972530
      898.100000       0.965920
      898.810000       0.949850
      899.540000       0.936340
      900.240000       0.919240
      900.950000       0.900970
      901.650000       0.887550
      902.350000       0.868330
      903.040000       0.859400
      903.750000       0.849250
      904.440000       0.849870
      905.140000       0.853980
      905.830000       0.861050
      906.530000       0.869710
      907.220000       0.894790
      907.910000       0.920520
      908.600000       0.951070
      909.320000       0.976340
      910.050000       0.997290
      910.740000       1.000000
      911.420000       0.983540
      912.120000       0.940650
      912.840000       0.860850
      913.540000       0.764280
      914.240000       0.648350
      914.940000       0.537860
      915.650000       0.427700
      916.340000       0.343230
      917.030000       0.260860
      917.730000       0.203760
      918.430000       0.153740
      919.160000       0.117260
      919.850000       0.086031
      920.540000       0.063349
      921.230000       0.053840
      921.930000       0.038214
      922.630000       0.028901
      923.330000       0.025630
      924.030000       0.015430
      924.730000       0.013583
      925.430000       0.012074
      926.130000       0.006146
      926.830000       0.006076
      927.540000       0.000000
      928.240000       0.000000
      928.940000       0.000000
