3, FY2E VISSR Infrared channel (10.5 microns)
Number of data points:
257
Wavenumber (cm-1)   Filter response
      818.330600       0.010800
      819.000800       0.011000
      819.672100       0.011200
      820.344500       0.011400
      821.018100       0.011700
      821.692700       0.011900
      822.368400       0.012000
      823.045300       0.012200
      823.723200       0.012400
      824.402300       0.012500
      825.082500       0.012700
      825.763800       0.012800
      826.446300       0.012900
      827.129900       0.013000
      827.814600       0.013100
      828.500400       0.013200
      829.187400       0.013300
      829.875500       0.013500
      830.564800       0.013800
      831.255200       0.014100
      831.946800       0.014400
      832.639500       0.014700
      833.333300       0.015000
      834.028400       0.015500
      834.724500       0.016000
      835.421900       0.016500
      836.120400       0.017000
      836.820100       0.017500
      837.520900       0.018200
      838.223000       0.019100
      838.926200       0.019900
      839.630600       0.020800
      840.336100       0.021600
      841.042900       0.022500
      841.750800       0.023600
      842.460000       0.024800
      843.170300       0.025900
      843.881900       0.027100
      844.594600       0.028200
      845.308500       0.029500
      846.023700       0.030900
      846.740100       0.032200
      847.457600       0.033600
      848.176400       0.035000
      848.896400       0.036900
      849.617700       0.040000
      850.340100       0.043200
      851.063800       0.046400
      851.788800       0.049700
      852.514900       0.052900
      853.242300       0.058500
      853.971000       0.064200
      854.700900       0.070000
      855.432000       0.075700
      856.164400       0.081400
      856.898000       0.089100
      857.632900       0.097600
      858.369100       0.106100
      859.106500       0.114700
      859.845200       0.123300
      860.585200       0.135000
      861.326400       0.150500
      862.069000       0.166000
      862.812800       0.181500
      863.557900       0.197100
      864.304200       0.214800
      865.051900       0.238700
      865.800900       0.262700
      866.551100       0.286800
      867.302700       0.310900
      868.055600       0.335200
      868.809700       0.360900
      869.565200       0.386600
      870.322000       0.412200
      871.080100       0.437800
      871.839600       0.463300
      872.600300       0.485900
      873.362400       0.508600
      874.125900       0.531500
      874.890600       0.554600
      875.656700       0.577700
      876.424200       0.600900
      877.193000       0.624000
      877.963100       0.646700
      878.734600       0.669300
      879.507500       0.691400
      880.281700       0.708800
      881.057300       0.726000
      881.834200       0.743200
      882.612500       0.760600
      883.392200       0.777800
      884.173300       0.782700
      884.955800       0.787500
      885.739600       0.791700
      886.524800       0.795900
      887.311400       0.800000
      888.099500       0.806200
      888.888900       0.812800
      889.679700       0.819400
      890.472000       0.826500
      891.265600       0.834400
      892.060700       0.846100
      892.857100       0.857800
      893.655000       0.869100
      894.454400       0.880500
      895.255100       0.886300
      896.057300       0.882200
      896.861000       0.878000
      897.666100       0.873800
      898.472600       0.869500
      899.280600       0.863000
      900.090000       0.855000
      900.900900       0.847000
      901.713300       0.839100
      902.527100       0.831200
      903.342400       0.834200
      904.159100       0.839900
      904.977400       0.845700
      905.797100       0.851500
      906.618300       0.856400
      907.441000       0.856200
      908.265200       0.855700
      909.090900       0.855100
      909.918100       0.854500
      910.746800       0.850200
      911.577000       0.840600
      912.408800       0.831000
      913.242000       0.821500
      914.076800       0.812100
      914.913100       0.813600
      915.750900       0.818000
      916.590300       0.822800
      917.431200       0.827700
      918.273600       0.833300
      919.117600       0.843100
      919.963200       0.852700
      920.810300       0.862200
      921.659000       0.871700
      922.509200       0.873200
      923.361000       0.869700
      924.214400       0.866400
      925.069400       0.862500
      925.925900       0.859300
      926.784100       0.860300
      927.643800       0.861200
      928.505100       0.862100
      929.368000       0.862900
      930.232600       0.871200
      931.098700       0.883900
      931.966400       0.896500
      932.835800       0.909200
      933.706800       0.920500
      934.579400       0.925500
      935.453700       0.930700
      936.329600       0.935900
      937.207100       0.941500
      938.086300       0.943200
      938.967100       0.943800
      939.849600       0.944500
      940.733800       0.944800
      941.619600       0.948500
      942.507100       0.956800
      943.396200       0.964900
      944.287100       0.973100
      945.179600       0.981000
      946.073800       0.985400
      946.969700       0.990000
      947.867300       0.995000
      948.766600       1.000000
      949.667600       0.996500
      950.570300       0.990500
      951.474800       0.984200
      952.381000       0.977800
      953.288800       0.970100
      954.198500       0.961300
      955.109800       0.952400
      956.022900       0.943600
      956.937800       0.932500
      957.854400       0.914800
      958.772800       0.897900
      959.692900       0.880900
      960.614800       0.863400
      961.538500       0.835900
      962.463900       0.808200
      963.391100       0.780400
      964.320200       0.752200
      965.251000       0.723400
      966.183600       0.694400
      967.118000       0.665600
      968.054200       0.637300
      968.992200       0.606800
      969.932100       0.575900
      970.873800       0.545100
      971.817300       0.514000
      972.762600       0.483200
      973.709800       0.452400
      974.658900       0.421600
      975.609800       0.390900
      976.562500       0.365300
      977.517100       0.343100
      978.473600       0.320900
      979.431900       0.298700
      980.392200       0.279200
      981.354300       0.261400
      982.318300       0.243700
      983.284200       0.226100
      984.252000       0.210200
      985.221700       0.195800
      986.193300       0.181400
      987.166800       0.166900
      988.142300       0.154900
      989.119700       0.144500
      990.099000       0.134100
      991.080300       0.123800
      992.063500       0.115300
      993.048700       0.107800
      994.035800       0.100300
      995.024900       0.092800
      996.015900       0.086900
      997.009000       0.081700
      998.004000       0.076400
      999.001000       0.071100
     1000.000000       0.066800
     1001.001000       0.062500
     1002.004000       0.058300
     1003.009000       0.054100
     1004.016100       0.051000
     1005.025100       0.047900
     1006.036200       0.044800
     1007.049300       0.041900
     1008.064500       0.039900
     1009.081700       0.037900
     1010.101000       0.035900
     1011.122300       0.034000
     1012.145700       0.032000
     1013.171200       0.030100
     1014.198800       0.028200
     1015.228400       0.026600
     1016.260200       0.025100
     1017.294000       0.023600
     1018.329900       0.022200
     1019.368000       0.021100
     1020.408200       0.020000
     1021.450500       0.018900
     1022.494900       0.017800
     1023.541500       0.016800
     1024.590200       0.015800
     1025.641000       0.014800
     1026.694000       0.013900
     1027.749200       0.013200
     1028.806600       0.012500
     1029.866100       0.011800
     1030.927800       0.011200
     1031.991700       0.010700
     1033.057900       0.010100
     1034.126200       0.009600
     1035.196700       0.009000
