 3    ,fy2_03_vissr_03.flt
Number of data points:
162
Wavenumber (cm-1)   Filter response
      783.699100       0.005022
      784.929400       0.005934
      786.163500       0.006881
      787.401600       0.007807
      788.643500       0.008580
      789.889400       0.009340
      791.139200       0.010129
      792.393000       0.011526
      793.650800       0.012991
      794.912600       0.014466
      796.178300       0.016249
      797.448200       0.018093
      798.722000       0.019939
      800.000000       0.021595
      801.282100       0.023196
      802.568200       0.024859
      803.858500       0.026846
      805.153000       0.028996
      806.451600       0.031170
      807.754400       0.033381
      809.061500       0.035633
      810.372800       0.037860
      811.688300       0.038246
      813.008100       0.038417
      814.332200       0.038560
      815.660700       0.038622
      816.993500       0.038666
      818.330600       0.038513
      819.672100       0.037034
      821.018100       0.035401
      822.368400       0.033512
      823.723200       0.031005
      825.082500       0.028365
      826.446300       0.027468
      827.814600       0.028520
      829.187400       0.029655
      830.564800       0.030783
      831.946800       0.031909
      833.333300       0.033045
      834.724500       0.035332
      836.120400       0.038062
      837.520900       0.040975
      838.926200       0.044883
      840.336100       0.049046
      841.750800       0.052670
      843.170300       0.054990
      844.594600       0.057454
      846.023700       0.065410
      847.457600       0.078907
      848.896400       0.092619
      850.340100       0.104635
      851.788800       0.116984
      853.242300       0.129028
      854.700900       0.139457
      856.164400       0.149949
      857.632900       0.173444
      859.106500       0.209842
      860.585200       0.245294
      862.069000       0.266689
      863.557900       0.285300
      865.051900       0.314336
      866.551100       0.365645
      868.055600       0.416627
      869.565200       0.475449
      871.080100       0.539246
      872.600300       0.585107
      874.125900       0.595769
      875.656700       0.605413
      877.193000       0.663771
      878.734600       0.757149
      880.281700       0.835083
      881.834200       0.870133
      883.392200       0.902759
      884.955800       0.906019
      886.524800       0.892856
      888.099500       0.890109
      889.679700       0.925372
      891.265600       0.958944
      892.857100       0.952134
      894.454400       0.936863
      896.057300       0.928513
      897.666100       0.932960
      899.280600       0.934810
      900.900900       0.917763
      902.527100       0.899623
      904.159100       0.906433
      905.797100       0.930778
      907.441000       0.943633
      909.090900       0.919386
      910.746800       0.899957
      912.408800       0.904375
      914.076800       0.913379
      915.750900       0.926199
      917.431200       0.943624
      919.117600       0.944978
      920.810300       0.922170
      922.509200       0.909078
      924.214400       0.940194
      925.925900       0.981064
      927.643800       0.982288
      929.368000       0.974986
      931.098700       0.970918
      932.835800       0.967776
      934.579400       0.969941
      936.329600       0.986049
      938.086300       0.995959
      939.849600       0.994843
      941.619600       0.994005
      943.396200       0.996652
      945.179600       0.999993
      946.969700       0.986144
      948.766600       0.967775
      950.570300       0.965064
      952.381000       0.980802
      954.198500       0.947873
      956.022900       0.878433
      957.854400       0.817648
      959.692900       0.782617
      961.538500       0.751280
      963.391100       0.727684
      965.251000       0.684750
      967.118000       0.573802
      968.992200       0.484600
      970.873800       0.476130
      972.762600       0.463063
      974.658900       0.407337
      976.562500       0.343982
      978.473600       0.274228
      980.392200       0.214033
      982.318300       0.201171
      984.252000       0.192799
      986.193300       0.157978
      988.142300       0.125800
      990.099000       0.115288
      992.063500       0.107758
      994.035800       0.099151
      996.015900       0.088045
      998.004000       0.065328
     1000.000000       0.048793
     1002.004000       0.049304
     1004.016100       0.049603
     1006.036200       0.045030
     1008.064500       0.039204
     1010.101000       0.031488
     1012.145700       0.026550
     1014.198800       0.026329
     1016.260200       0.022565
     1018.329900       0.017176
     1020.408200       0.015136
     1022.494900       0.014989
     1024.590200       0.015354
     1026.694000       0.015730
     1028.806600       0.010124
     1030.927800       0.006248
     1033.057900       0.006101
     1035.196700       0.006728
     1037.344400       0.007858
     1039.501000       0.007585
     1041.666700       0.005965
     1043.841300       0.005856
     1046.025100       0.005804
     1048.218000       0.004836
