   8  ,noaa_10_hirs_08.flt
Number of data points:
94
Wavenumber (cm-1)   Filter response
      853.870000       0.000000
      857.910000       0.002661
      860.710000       0.004764
      862.760000       0.006373
      865.360000       0.006981
      867.690000       0.008629
      869.830000       0.009137
      871.360000       0.009858
      872.400000       0.022180
      873.870000       0.036242
      874.900000       0.046019
      876.260000       0.078045
      876.940000       0.105020
      877.400000       0.126750
      877.870000       0.146260
      878.180000       0.161200
      878.570000       0.187970
      878.970000       0.216390
      879.320000       0.242580
      879.680000       0.269610
      880.040000       0.299040
      880.680000       0.356560
      881.190000       0.411420
      881.660000       0.479840
      882.310000       0.546520
      882.960000       0.604260
      883.640000       0.661350
      884.000000       0.693900
      884.370000       0.718760
      884.730000       0.740540
      885.130000       0.760090
      885.820000       0.780140
      886.280000       0.798100
      886.940000       0.819050
      887.800000       0.836510
      888.400000       0.845860
      888.650000       0.855420
      889.190000       0.870280
      890.230000       0.894160
      891.740000       0.923100
      893.130000       0.953440
      894.140000       0.971900
      895.210000       0.988360
      895.960000       1.000000
      896.850000       0.994540
      897.660000       0.987510
      898.860000       0.974080
      899.760000       0.962400
      900.400000       0.947390
      901.050000       0.931890
      901.510000       0.912710
      902.140000       0.892140
      903.080000       0.874360
      904.020000       0.860600
      904.500000       0.855170
      905.720000       0.852080
      906.550000       0.873750
      907.370000       0.900920
      908.170000       0.928110
      909.080000       0.961460
      909.700000       0.978510
      910.140000       0.989490
      910.530000       0.992140
      911.050000       0.993280
      911.350000       0.981230
      911.660000       0.964500
      911.920000       0.948700
      912.220000       0.926840
      912.520000       0.886350
      912.810000       0.836810
      913.400000       0.740460
      913.730000       0.692690
      914.290000       0.605690
      914.570000       0.554220
      914.900000       0.511830
      915.340000       0.433350
      916.060000       0.349000
      916.790000       0.269750
      917.500000       0.202580
      917.800000       0.170060
      918.320000       0.135460
      918.970000       0.105470
      919.950000       0.081043
      920.960000       0.051149
      921.680000       0.043655
      923.080000       0.034650
      924.090000       0.024647
      925.310000       0.013575
      929.110000       0.009132
      932.130000       0.006479
      934.400000       0.004212
      937.050000       0.002117
      939.900000       0.000461
      944.000000       0.000000
