 2    ,fy2_04_vissr_02.flt
Number of data points:
125
Wavenumber (cm-1)   Filter response
     1228.501200       0.002200
     1231.527100       0.012200
     1234.567900       0.012300
     1237.623800       0.013900
     1240.694800       0.013100
     1243.781100       0.013300
     1246.882800       0.017200
     1250.000000       0.020600
     1253.132800       0.018400
     1256.281400       0.025400
     1259.445800       0.034100
     1262.626300       0.037600
     1265.822800       0.042100
     1269.035500       0.058400
     1272.264600       0.057000
     1275.510200       0.053500
     1278.772400       0.069400
     1282.051300       0.090100
     1285.347000       0.085400
     1288.659800       0.100700
     1291.989700       0.148400
     1295.336800       0.145000
     1298.701300       0.169700
     1302.083300       0.229600
     1305.483000       0.248300
     1308.900500       0.243000
     1312.336000       0.337900
     1315.789500       0.378200
     1319.261200       0.382800
     1322.751300       0.518700
     1326.259900       0.563300
     1329.787200       0.585100
     1333.333300       0.660800
     1336.898400       0.662900
     1340.482600       0.651100
     1344.086000       0.730300
     1347.708900       0.751200
     1351.351400       0.765700
     1355.013600       0.760100
     1358.695700       0.713600
     1362.397800       0.714900
     1366.120200       0.686500
     1369.863000       0.712300
     1373.626400       0.734600
     1377.410500       0.663000
     1381.215500       0.769800
     1385.041600       0.768200
     1388.888900       0.700900
     1392.757700       0.769100
     1396.648000       0.717400
     1400.560200       0.739000
     1404.494400       0.815400
     1408.450700       0.783000
     1412.429400       0.818500
     1416.430600       0.802100
     1420.454500       0.710400
     1424.501400       0.773100
     1428.571400       0.815500
     1432.664800       0.757000
     1436.781600       0.780100
     1440.922200       0.804600
     1445.086700       0.832000
     1449.275400       0.791100
     1453.488400       0.698200
     1457.725900       0.590600
     1461.988300       0.648200
     1466.275700       0.750000
     1470.588200       0.725100
     1474.926300       0.696200
     1479.289900       0.796200
     1483.679500       0.811700
     1488.095200       0.731300
     1492.537300       0.698800
     1497.006000       0.739700
     1501.501500       0.702300
     1506.024100       0.594400
     1510.574000       0.570100
     1515.151500       0.625300
     1519.756800       0.613700
     1524.390200       0.698400
     1529.052000       0.858800
     1533.742300       0.881500
     1538.461500       0.782100
     1543.209900       0.740800
     1547.987600       1.000000
     1552.795000       0.963800
     1557.632400       0.798500
     1562.500000       0.757300
     1567.398100       0.826300
     1572.327000       0.628500
     1577.287100       0.532300
     1582.278500       0.525600
     1587.301600       0.475900
     1592.356700       0.390100
     1597.444100       0.299400
     1602.564100       0.233500
     1607.717000       0.170500
     1612.903200       0.158400
     1618.123000       0.132900
     1623.376600       0.107100
     1628.664500       0.082200
     1633.986900       0.099700
     1639.344300       0.076300
     1644.736800       0.063500
     1650.165000       0.039800
     1655.629100       0.045700
     1661.129600       0.047400
     1666.666700       0.043600
     1672.240800       0.034900
     1677.852300       0.033500
     1683.501700       0.024900
     1689.189200       0.017000
     1694.915300       0.013600
     1700.680300       0.013000
     1706.484600       0.009100
     1712.328800       0.010900
     1718.213100       0.008600
     1724.137900       0.009400
     1730.103800       0.009600
     1736.111100       0.009600
     1742.160300       0.005600
     1748.251700       0.005200
     1754.386000       0.004000
     1760.563400       0.005200
     1766.784500       0.002300
