 3    ,fy2_04_vissr_03.flt
Number of data points:
196
Wavenumber (cm-1)   Filter response
      770.416000       0.000400
      771.604900       0.001000
      772.797500       0.001000
      773.993800       0.000800
      775.193800       0.000500
      776.397500       0.000600
      777.605000       0.000800
      778.816200       0.001100
      780.031200       0.001600
      781.250000       0.002400
      782.472600       0.003300
      783.699100       0.003900
      784.929400       0.004000
      786.163500       0.004000
      787.401600       0.004000
      788.643500       0.003800
      789.889400       0.003600
      791.139200       0.003400
      792.393000       0.004000
      793.650800       0.004600
      794.912600       0.005200
      796.178300       0.004900
      797.448200       0.004500
      798.722000       0.004100
      800.000000       0.004000
      801.282100       0.003800
      802.568200       0.003800
      803.858500       0.004800
      805.153000       0.006200
      806.451600       0.007600
      807.754400       0.008000
      809.061500       0.008200
      810.372800       0.008400
      811.688300       0.009100
      813.008100       0.009800
      814.332200       0.010900
      815.660700       0.013200
      816.993500       0.015800
      818.330600       0.018000
      819.672100       0.018000
      821.018100       0.017800
      822.368400       0.017300
      823.723200       0.015700
      825.082500       0.014000
      826.446300       0.013500
      827.814600       0.014300
      829.187400       0.015100
      830.564800       0.015700
      831.946800       0.016200
      833.333300       0.016800
      834.724500       0.017400
      836.120400       0.018000
      837.520900       0.019000
      838.926200       0.021800
      840.336100       0.024700
      841.750800       0.027600
      843.170300       0.030400
      844.594600       0.033300
      846.023700       0.036600
      847.457600       0.040000
      848.896400       0.043700
      850.340100       0.051500
      851.788800       0.060200
      853.242300       0.069600
      854.700900       0.080500
      856.164400       0.091700
      857.632900       0.105700
      859.106500       0.121900
      860.585200       0.139500
      862.069000       0.165700
      863.557900       0.193100
      865.051900       0.224100
      866.551100       0.261000
      868.055600       0.298000
      869.565200       0.335500
      871.080100       0.373300
      872.600300       0.418300
      874.125900       0.473800
      875.656700       0.529500
      877.193000       0.577000
      878.734600       0.620100
      880.281700       0.659200
      881.834200       0.685100
      883.392200       0.712500
      884.955800       0.766200
      886.524800       0.831900
      888.099500       0.883600
      889.679700       0.891100
      891.265600       0.901300
      892.857100       0.893900
      894.454400       0.883400
      896.057300       0.889900
      897.666100       0.923600
      899.280600       0.951500
      900.900900       0.922900
      902.527100       0.892800
      904.159100       0.874200
      905.797100       0.863000
      907.441000       0.862200
      909.090900       0.891300
      910.746800       0.912200
      912.408800       0.891400
      914.076800       0.865100
      915.750900       0.855800
      917.431200       0.859200
      919.117600       0.873400
      920.810300       0.903600
      922.509200       0.923100
      924.214400       0.908000
      925.925900       0.886900
      927.643800       0.901600
      929.368000       0.923800
      931.098700       0.942600
      932.835800       0.960200
      934.579400       0.967100
      936.329600       0.949900
      938.086300       0.946000
      939.849600       0.971500
      941.619600       0.998800
      943.396200       1.000000
      945.179600       0.997100
      946.969700       0.992000
      948.766600       0.987000
      950.570300       0.985000
      952.381000       0.985900
      954.198500       0.969200
      956.022900       0.941600
      957.854400       0.911000
      959.692900       0.878700
      961.538500       0.838800
      963.391100       0.787300
      965.251000       0.734400
      967.118000       0.677500
      968.992200       0.619700
      970.873800       0.562100
      972.762600       0.503700
      974.658900       0.442200
      976.562500       0.382500
      978.473600       0.335800
      980.392200       0.291300
      982.318300       0.253700
      984.252000       0.218800
      986.193300       0.194400
      988.142300       0.171200
      990.099000       0.151200
      992.063500       0.131300
      994.035800       0.111700
      996.015900       0.093700
      998.004000       0.080400
     1000.000000       0.068600
     1002.004000       0.059700
     1004.016100       0.051500
     1006.036200       0.045000
     1008.064500       0.038800
     1010.101000       0.033100
     1012.145700       0.028600
     1014.198800       0.025600
     1016.260200       0.024200
     1018.329900       0.023400
     1020.408200       0.021700
     1022.494900       0.019500
     1024.590200       0.017600
     1026.694000       0.015800
     1028.806600       0.014900
     1030.927800       0.013300
     1033.057900       0.010400
     1035.196700       0.008300
     1037.344400       0.007400
     1039.501000       0.007700
     1041.666700       0.009100
     1043.841300       0.007200
     1046.025100       0.005400
     1048.218000       0.004600
     1050.420200       0.005000
     1052.631600       0.006800
     1054.852300       0.007000
     1057.082500       0.005700
     1059.322000       0.004300
     1061.571100       0.003700
     1063.829800       0.009200
     1066.098100       0.011700
     1068.376100       0.011500
     1070.663800       0.008000
     1072.961400       0.004600
     1075.268800       0.005200
     1077.586200       0.005100
     1079.913600       0.003700
     1082.251100       0.002600
     1084.598700       0.002400
     1086.956500       0.004200
     1089.324600       0.004700
     1091.703100       0.003300
     1094.091900       0.001600
     1096.491200       0.000800
     1098.901100       0.001900
     1101.321600       0.001600
