   8  ,noaa_11_hirs_08.flt
Number of data points:
101
Wavenumber (cm-1)   Filter response
      863.030000       0.000000
      863.770000       0.007501
      864.510000       0.007334
      865.260000       0.007897
      866.000000       0.008749
      866.750000       0.010040
      867.490000       0.010766
      868.240000       0.011653
      868.980000       0.012570
      869.680000       0.015010
      870.410000       0.014030
      871.150000       0.020850
      871.890000       0.021716
      872.620000       0.027266
      873.360000       0.030363
      874.100000       0.035992
      874.840000       0.044846
      875.580000       0.053521
      876.320000       0.066863
      877.070000       0.084301
      877.810000       0.097916
      878.560000       0.117710
      879.240000       0.144490
      879.980000       0.176720
      880.730000       0.219590
      881.480000       0.262690
      882.240000       0.319850
      883.000000       0.390120
      883.740000       0.467100
      884.480000       0.549310
      885.230000       0.638580
      885.980000       0.714480
      886.730000       0.778570
      887.490000       0.828090
      888.240000       0.866640
      888.980000       0.901050
      889.720000       0.920620
      890.460000       0.935620
      891.220000       0.949870
      891.960000       0.951540
      892.700000       0.952700
      893.450000       0.954020
      894.190000       0.955180
      894.940000       0.954360
      895.690000       0.953050
      896.430000       0.957600
      897.180000       0.959800
      897.920000       0.963720
      898.670000       0.967490
      899.430000       0.971130
      900.180000       0.971910
      900.940000       0.982340
      901.690000       0.988010
      902.450000       0.992410
      903.200000       0.999140
      903.950000       1.000000
      904.700000       0.997970
      905.460000       0.996430
      906.210000       0.988940
      906.960000       0.982250
      907.720000       0.978610
      908.470000       0.966940
      909.200000       0.955820
      909.930000       0.951000
      910.660000       0.942910
      911.400000       0.934480
      912.130000       0.926680
      912.860000       0.910160
      913.610000       0.882150
      914.340000       0.842170
      915.080000       0.775440
      915.800000       0.692160
      916.570000       0.595200
      917.330000       0.494160
      918.020000       0.398170
      918.750000       0.313510
      919.450000       0.242920
      920.220000       0.182430
      920.970000       0.139440
      921.670000       0.096737
      922.420000       0.075904
      923.170000       0.056348
      923.910000       0.044573
      924.650000       0.039137
      925.390000       0.031437
      926.140000       0.025152
      926.880000       0.021088
      927.620000       0.019607
      928.360000       0.017932
      929.090000       0.015847
      929.820000       0.013693
      930.550000       0.013690
      931.290000       0.011571
      932.010000       0.011561
      932.750000       0.010237
      933.480000       0.010237
      934.200000       0.010210
      934.940000       0.010209
      935.670000       0.009023
      936.400000       0.011145
      937.130000       0.000000
