 4    ,fy2_03_vissr_04.flt
Number of data points:
172
Wavenumber (cm-1)   Filter response
      744.047600       0.020666
      745.156500       0.022800
      746.268700       0.024964
      747.384200       0.027149
      748.503000       0.029355
      749.625200       0.031597
      750.750800       0.034107
      751.879700       0.036655
      753.012000       0.040007
      754.147800       0.044818
      755.287000       0.049699
      756.429700       0.054845
      757.575800       0.062464
      758.725300       0.070429
      759.878400       0.078474
      761.035000       0.088432
      762.195100       0.099486
      763.358800       0.110915
      764.526000       0.122586
      765.696800       0.134372
      766.871200       0.146435
      768.049200       0.158340
      769.230800       0.167867
      770.416000       0.177032
      771.604900       0.186537
      772.797500       0.199687
      773.993800       0.214649
      775.193800       0.229593
      776.397500       0.245507
      777.605000       0.262195
      778.816200       0.278766
      780.031200       0.297978
      781.250000       0.320740
      782.472600       0.343661
      783.699100       0.371229
      784.929400       0.408954
      786.163500       0.448089
      787.401600       0.486982
      788.643500       0.523209
      789.889400       0.559534
      791.139200       0.596656
      792.393000       0.644554
      793.650800       0.693767
      794.912600       0.743854
      796.178300       0.764462
      797.448200       0.782363
      798.722000       0.799013
      800.000000       0.802182
      801.282100       0.800639
      802.568200       0.801650
      803.858500       0.822703
      805.153000       0.852851
      806.451600       0.882257
      807.754400       0.881254
      809.061500       0.873122
      810.372800       0.865081
      811.688300       0.860872
      813.008100       0.857098
      814.332200       0.854229
      815.660700       0.856545
      816.993500       0.860290
      818.330600       0.859782
      819.672100       0.830915
      821.018100       0.798114
      822.368400       0.771504
      823.723200       0.770444
      825.082500       0.769719
      826.446300       0.762628
      827.814600       0.748039
      829.187400       0.732599
      830.564800       0.721055
      831.946800       0.713885
      833.333300       0.706706
      834.724500       0.722146
      836.120400       0.747139
      837.520900       0.766580
      838.926200       0.751942
      840.336100       0.733190
      841.750800       0.726969
      843.170300       0.747195
      844.594600       0.770768
      846.023700       0.789754
      847.457600       0.803741
      848.896400       0.819614
      850.340100       0.829361
      851.788800       0.839086
      853.242300       0.859289
      854.700900       0.906770
      856.164400       0.957875
      857.632900       0.977710
      859.106500       0.967060
      860.585200       0.960060
      862.069000       0.974816
      863.557900       0.991558
      865.051900       1.000000
      866.551100       0.992787
      868.055600       0.985227
      869.565200       0.947692
      871.080100       0.899448
      872.600300       0.862646
      874.125900       0.845851
      875.656700       0.827302
      877.193000       0.780272
      878.734600       0.713783
      880.281700       0.650918
      881.834200       0.595806
      883.392200       0.540463
      884.955800       0.504500
      886.524800       0.478706
      888.099500       0.449094
      889.679700       0.409528
      891.265600       0.369991
      892.857100       0.342480
      894.454400       0.317209
      896.057300       0.293091
      897.666100       0.271274
      899.280600       0.249038
      900.900900       0.231658
      902.527100       0.214167
      904.159100       0.200674
      905.797100       0.189945
      907.441000       0.179577
      909.090900       0.170759
      910.746800       0.161956
      912.408800       0.154661
      914.076800       0.147599
      915.750900       0.141538
      917.431200       0.136396
      919.117600       0.130878
      920.810300       0.124916
      922.509200       0.119083
      924.214400       0.114154
      925.925900       0.109317
      927.643800       0.105546
      929.368000       0.102085
      931.098700       0.098974
      932.835800       0.096018
      934.579400       0.093176
      936.329600       0.090780
      938.086300       0.088201
      939.849600       0.085557
      941.619600       0.083137
      943.396200       0.082369
      945.179600       0.081878
      946.969700       0.080443
      948.766600       0.078687
      950.570300       0.076264
      952.381000       0.073432
      954.198500       0.070025
      956.022900       0.066080
      957.854400       0.061645
      959.692900       0.056446
      961.538500       0.051642
      963.391100       0.047263
      965.251000       0.042676
      967.118000       0.037686
      968.992200       0.032869
      970.873800       0.028641
      972.762600       0.024733
      974.658900       0.022040
      976.562500       0.019391
      978.473600       0.016348
      980.392200       0.013559
      982.318300       0.011974
      984.252000       0.011202
      986.193300       0.014563
      988.142300       0.017527
      990.099000       0.017211
      992.063500       0.015615
      994.035800       0.010792
      996.015900       0.006308
      998.004000       0.004320
