 4    ,noaa_19_avhrr_04.flt
Number of data points:
83
Wavenumber (cm-1)   Filter response
      859.106500       0.000307
      860.585200       0.001074
      862.069000       0.002074
      863.557900       0.003857
      865.051900       0.005535
      866.551100       0.008590
      868.055600       0.012873
      869.565200       0.018626
      871.080100       0.026890
      872.600300       0.039189
      874.125900       0.057620
      875.656700       0.083555
      877.193000       0.122010
      878.734600       0.172920
      880.281700       0.241640
      881.834200       0.323470
      883.392200       0.410620
      884.955800       0.503040
      886.524800       0.580560
      888.099500       0.668060
      889.679700       0.737150
      891.265600       0.787120
      892.857100       0.843950
      894.454400       0.861020
      896.057300       0.888320
      897.666100       0.892680
      899.280600       0.909670
      900.900900       0.911540
      902.527100       0.920880
      904.159100       0.929110
      905.797100       0.930470
      907.441000       0.941320
      909.090900       0.935940
      910.746800       0.959860
      912.408800       0.959790
      914.076800       0.960110
      915.750900       0.970020
      917.431200       0.973010
      919.117600       0.982650
      920.810300       0.988850
      922.509200       0.994760
      924.214400       0.986380
      925.925900       0.977620
      927.643800       0.989380
      929.368000       0.999610
      931.098700       1.000000
      932.835800       0.997000
      934.579400       0.986490
      936.329600       0.993680
      938.086300       0.974510
      939.849600       0.974730
      941.619600       0.961020
      943.396200       0.967730
      945.179600       0.972470
      946.969700       0.972320
      948.766600       0.964940
      950.570300       0.961150
      952.381000       0.959590
      954.198500       0.955120
      956.022900       0.938370
      957.854400       0.918410
      959.692900       0.885860
      961.538500       0.840990
      963.391100       0.776980
      965.251000       0.702000
      967.118000       0.615210
      968.992200       0.521730
      970.873800       0.434450
      972.762600       0.344630
      974.658900       0.272270
      976.562500       0.208070
      978.473600       0.153560
      980.392200       0.110740
      982.318300       0.075545
      984.252000       0.050001
      986.193300       0.032227
      988.142300       0.020627
      990.099000       0.012900
      992.063500       0.007976
      994.035800       0.004645
      996.015900       0.002634
      998.004000       0.001314
     1000.000000       0.000633
