6, INSAT-3D Imager  Long Wave Infared Window (TIR-2) (11.5-12.5mu)
Number of data points:
67
Wavenumber (cm-1)   Filter response
      788.643500       0.000000
      789.889400       0.001000
      791.139200       0.032000
      792.393000       0.042600
      793.650800       0.093100
      794.912600       0.134500
      796.178300       0.178100
      797.448200       0.224800
      798.722000       0.307300
      800.000000       0.357000
      801.282100       0.403300
      802.568200       0.461400
      803.858500       0.500200
      805.153000       0.558100
      806.451600       0.598300
      807.754400       0.664400
      809.061500       0.710400
      810.372800       0.711500
      811.688300       0.747500
      813.008100       0.760100
      814.332200       0.773500
      815.660700       0.767900
      816.993500       0.729700
      818.330600       0.740200
      819.672100       0.716400
      821.018100       0.732100
      822.368400       0.722600
      823.723200       0.747300
      825.082500       0.737200
      826.446300       0.716800
      827.814600       0.720600
      830.564800       0.761500
      831.946800       0.763600
      833.333300       0.801100
      834.724500       0.820800
      836.120400       0.834100
      837.520900       0.845300
      838.926200       0.843000
      840.336100       0.885900
      841.750800       0.879700
      843.170300       0.860600
      844.594600       0.889100
      846.023700       0.902000
      847.457600       0.880800
      848.896400       0.880200
      850.340100       0.880400
      851.788800       0.914200
      853.242300       0.921100
      854.700900       0.951700
      856.164400       0.982100
      857.632900       0.982800
      859.106500       1.000000
      860.585200       0.990500
      862.069000       0.954000
      863.557900       0.933200
      865.051900       0.861900
      866.551100       0.767400
      868.055600       0.644900
      869.565200       0.516600
      871.080100       0.375900
      872.600300       0.242700
      874.125900       0.151600
      875.656700       0.079900
      877.193000       0.040800
      878.734600       0.004700
      880.281700       0.001000
      881.834200       0.000000
