9,   from EPIC Filters Original Data.xlsx (col 25) Deep Space Climate Observatory (December 2019)
Number of data points:
301
Wavenumber (cm-1)   Filter response
    13054.659900       0.157920
    13055.000700       0.159760
    13055.341600       0.162560
    13055.682500       0.166260
    13056.023400       0.167270
    13056.364300       0.169280
    13056.705300       0.173740
    13057.046200       0.176190
    13057.387200       0.179880
    13057.728200       0.183050
    13058.069200       0.185290
    13058.410300       0.188910
    13058.751300       0.191750
    13059.092400       0.194400
    13059.433500       0.199930
    13059.774600       0.201950
    13060.115700       0.204280
    13060.456900       0.207850
    13060.798000       0.215760
    13061.139200       0.218540
    13061.480400       0.222970
    13061.821600       0.226340
    13062.162800       0.230330
    13062.504100       0.234520
    13062.845300       0.241360
    13063.186600       0.243880
    13063.527900       0.248740
    13063.869300       0.254010
    13064.210600       0.261530
    13064.552000       0.265760
    13064.893300       0.273470
    13065.234700       0.279200
    13065.576100       0.284150
    13065.917600       0.292080
    13066.259000       0.298480
    13066.600500       0.302360
    13066.941900       0.310530
    13067.283400       0.318210
    13067.625000       0.327480
    13067.966500       0.333840
    13068.308000       0.343130
    13068.649600       0.348710
    13068.991200       0.360170
    13069.332800       0.370790
    13069.674400       0.380480
    13070.186900       0.390450
    13070.528600       0.404710
    13070.870300       0.418680
    13071.212000       0.435050
    13071.553700       0.450200
    13071.895400       0.468160
    13072.237200       0.486470
    13072.579000       0.505840
    13072.920800       0.526140
    13073.262600       0.542850
    13073.604400       0.569640
    13073.946200       0.590790
    13074.288100       0.625230
    13074.630000       0.659650
    13074.971900       0.698300
    13075.313800       0.737210
    13075.655700       0.780450
    13075.997700       0.838370
    13076.339700       0.902070
    13076.681700       0.967120
    13077.023700       1.047500
    13077.365700       1.120190
    13077.707700       1.226560
    13078.049800       1.354210
    13078.391900       1.483450
    13078.734000       1.636660
    13079.076100       1.797530
    13079.418200       2.050780
    13079.760400       2.297290
    13080.102500       2.577750
    13080.444700       2.968460
    13080.786900       3.403910
    13081.129200       4.016350
    13081.471400       4.751870
    13081.813700       5.620570
    13082.155900       6.648690
    13082.498200       7.695830
    13082.840500       9.428920
    13083.182900      11.192670
    13083.525200      12.939770
    13083.867600      15.540900
    13084.210000      17.611790
    13084.552400      21.453350
    13084.894800      24.729010
    13085.237200      29.023290
    13085.579700      33.333430
    13085.922200      37.536120
    13086.264700      43.324330
    13086.607200      48.097120
    13086.949700      53.125690
    13087.292200      57.854210
    13087.634800      61.531920
    13087.977400      66.612570
    13088.320000      70.416710
    13088.662600      73.264030
    13089.005200      75.954820
    13089.347900      77.963190
    13089.690600      80.226100
    13090.033200      81.416160
    13090.376000      82.398320
    13090.718700      83.215730
    13091.061400      83.639420
    13091.404200      84.075390
    13091.747000      84.386300
    13092.089800      84.590780
    13092.432600      84.752550
    13092.775400      84.984250
    13093.118300      85.297940
    13093.461100      85.594960
    13093.804000      85.831030
    13094.146900      86.225630
    13094.489800      86.466300
    13094.832800      86.797100
    13095.175700      87.115200
    13095.518700      87.376980
    13095.861700      87.694660
    13096.204700      87.920340
    13096.547800      88.040850
    13096.890800      88.194350
    13097.233900      88.151430
    13097.576900      88.013980
    13097.920100      87.842510
    13098.263200      87.476880
    13098.606300      86.864980
    13098.949500      86.086100
    13099.292600      85.115870
    13099.635800      83.975740
    13099.979000      82.244130
    13100.322300      80.267940
    13100.665500      77.892910
    13101.008800      75.281370
    13101.352100      72.768730
    13101.695400      68.113700
    13102.038700      63.795340
    13102.382000      59.823780
    13102.725400      55.058220
    13103.068700      50.731460
    13103.412100      45.533810
    13103.755500      41.050470
    13104.099000      36.584940
    13104.442400      32.645990
    13104.785900      29.284840
    13105.129300      25.064460
    13105.472800      21.543440
    13105.816400      18.626230
    13106.159900      16.349220
    13106.503400      14.196180
    13106.847000      11.931080
    13107.190600      10.305740
    13107.534200       8.776940
    13107.877800       7.480650
    13108.221500       6.586910
    13108.565100       5.421880
    13108.908800       4.554710
    13109.252500       3.941020
    13109.596200       3.452240
    13109.940000       3.063550
    13110.283700       2.651160
    13110.627500       2.338200
    13110.971300       2.126080
    13111.315100       1.875990
    13111.658900       1.728660
    13112.002700       1.526700
    13112.346600       1.376310
    13112.690500       1.256300
    13113.034400       1.154870
    13113.378300       1.070580
    13113.722200       0.986360
    13114.066100       0.916480
    13114.410100       0.863790
    13114.754100       0.811590
    13115.098100       0.769330
    13115.442100       0.714900
    13115.786200       0.675360
    13116.130200       0.645020
    13116.474300       0.610630
    13116.818400       0.588580
    13117.162500       0.558690
    13117.506600       0.538050
    13117.850800       0.517110
    13118.194900       0.496010
    13118.539100       0.486020
    13118.883300       0.458230
    13119.227500       0.442230
    13119.571800       0.427650
    13119.916000       0.415720
    13120.260300       0.406470
    13120.604600       0.391500
    13120.948900       0.383550
    13121.293200       0.373810
    13121.637600       0.363050
    13121.981900       0.355630
    13122.326300       0.346760
    13122.670700       0.335780
    13123.015100       0.328840
    13123.359600       0.322250
    13123.704000       0.314750
    13124.048500       0.308460
    13124.393000       0.299780
    13124.737500       0.295090
    13125.082000       0.287150
    13125.426600       0.280020
    13125.771100       0.275080
    13126.115700       0.269340
    13126.460300       0.261560
    13126.804900       0.256920
    13127.149600       0.253320
    13127.494200       0.243630
    13127.838900       0.241630
    13128.183600       0.237050
    13128.528300       0.233400
    13128.873000       0.230340
    13129.217800       0.222150
    13129.562500       0.218270
    13129.907300       0.212440
    13130.252100       0.210660
    13130.596900       0.206640
    13130.941800       0.201890
    13131.286600       0.196890
    13131.631500       0.195130
    13131.976400       0.191540
    13132.321300       0.187260
    13132.666200       0.185040
    13133.011100       0.180310
    13133.356100       0.178900
    13133.701100       0.174830
    13134.046100       0.170740
    13134.391100       0.167940
    13134.736100       0.165730
    13135.081200       0.163160
    13135.426200       0.160670
    13135.771300       0.158370
    13136.116400       0.154490
    13136.461600       0.152860
    13136.806700       0.151870
    13137.151900       0.149170
    13137.497000       0.146990
    13137.842200       0.144560
    13138.187500       0.143060
    13138.532700       0.141840
    13138.877900       0.138970
    13139.223200       0.137470
    13139.568500       0.134970
    13139.913800       0.132480
    13140.259100       0.130660
    13140.604500       0.129540
    13140.949800       0.127530
    13141.295200       0.124610
    13141.640600       0.123880
    13141.986000       0.121330
    13142.331400       0.121010
    13142.676900       0.118360
    13143.022400       0.116160
    13143.367900       0.116540
    13143.713400       0.112650
    13144.058900       0.112950
    13144.404400       0.111000
    13144.750000       0.108910
    13145.095600       0.107940
    13145.441200       0.107100
    13145.786800       0.105240
    13146.132400       0.103370
    13146.478100       0.101890
    13146.823700       0.099340
    13147.169400       0.099280
    13147.515100       0.097650
    13147.860800       0.095490
    13148.206600       0.094660
    13148.552300       0.093430
    13148.898100       0.091950
    13149.243900       0.092120
    13149.589700       0.090850
    13149.935600       0.088920
    13150.281400       0.088560
    13150.627300       0.088050
    13150.973200       0.086050
    13151.319100       0.085260
    13151.665000       0.084880
    13152.010900       0.083700
    13152.356900       0.082860
    13152.702900       0.081740
    13153.048900       0.081160
    13153.394900       0.080090
    13153.740900       0.079090
    13154.087000       0.078110
    13154.433000       0.078330
    13154.779100       0.077260
    13155.125200       0.076070
    13155.471400       0.075260
    13155.817500       0.075260
    13156.163700       0.073910
    13156.509800       0.073220
    13156.856000       0.072080
    13157.202300       0.072040
    13157.548500       0.069910
    13157.894700       0.069280
