 4    ,fy2_04_vissr_04.flt
Number of data points:
181
Wavenumber (cm-1)   Filter response
      749.625200       0.021200
      750.750800       0.023600
      751.879700       0.025900
      753.012000       0.028600
      754.147800       0.031900
      755.287000       0.035300
      756.429700       0.038700
      757.575800       0.041100
      758.725300       0.043400
      759.878400       0.045700
      761.035000       0.049200
      762.195100       0.053300
      763.358800       0.057400
      764.526000       0.062800
      765.696800       0.070300
      766.871200       0.078100
      768.049200       0.085700
      769.230800       0.091200
      770.416000       0.096400
      771.604900       0.101900
      772.797500       0.111500
      773.993800       0.123100
      775.193800       0.134800
      776.397500       0.145000
      777.605000       0.154000
      778.816200       0.162900
      780.031200       0.175500
      781.250000       0.192700
      782.472600       0.210100
      783.699100       0.232700
      784.929400       0.266000
      786.163500       0.300900
      787.401600       0.332500
      788.643500       0.346000
      789.889400       0.356900
      791.139200       0.368300
      792.393000       0.390700
      793.650800       0.414500
      794.912600       0.438700
      796.178300       0.466900
      797.448200       0.495900
      798.722000       0.523800
      800.000000       0.537300
      801.282100       0.546400
      802.568200       0.555700
      803.858500       0.566600
      805.153000       0.578500
      806.451600       0.590600
      807.754400       0.600000
      809.061500       0.608500
      810.372800       0.617400
      811.688300       0.628900
      813.008100       0.640800
      814.332200       0.650200
      815.660700       0.650100
      816.993500       0.647600
      818.330600       0.647900
      819.672100       0.662200
      821.018100       0.677800
      822.368400       0.687300
      823.723200       0.680600
      825.082500       0.674300
      826.446300       0.666300
      827.814600       0.656300
      829.187400       0.646100
      830.564800       0.653200
      831.946800       0.676700
      833.333300       0.698700
      834.724500       0.706400
      836.120400       0.710000
      837.520900       0.716900
      838.926200       0.737200
      840.336100       0.759800
      841.750800       0.783800
      843.170300       0.809600
      844.594600       0.837800
      846.023700       0.858400
      847.457600       0.870700
      848.896400       0.884700
      850.340100       0.905700
      851.788800       0.929700
      853.242300       0.951900
      854.700900       0.969100
      856.164400       0.986100
      857.632900       0.995900
      859.106500       0.999100
      860.585200       1.000000
      862.069000       0.983000
      863.557900       0.961400
      865.051900       0.939400
      866.551100       0.917600
      868.055600       0.893400
      869.565200       0.830700
      871.080100       0.756000
      872.600300       0.687900
      874.125900       0.628700
      875.656700       0.570300
      877.193000       0.538600
      878.734600       0.523800
      880.281700       0.495900
      881.834200       0.435600
      883.392200       0.375000
      884.955800       0.326800
      886.524800       0.283600
      888.099500       0.245500
      889.679700       0.225900
      891.265600       0.204900
      892.857100       0.182700
      894.454400       0.160000
      896.057300       0.142200
      897.666100       0.132300
      899.280600       0.121400
      900.900900       0.106100
      902.527100       0.090400
      904.159100       0.079200
      905.797100       0.070400
      907.441000       0.062900
      909.090900       0.059800
      910.746800       0.056000
      912.408800       0.050100
      914.076800       0.043900
      915.750900       0.040000
      917.431200       0.037600
      919.117600       0.035800
      920.810300       0.035100
      922.509200       0.033700
      924.214400       0.030500
      925.925900       0.026900
      927.643800       0.025100
      929.368000       0.023600
      931.098700       0.022800
      932.835800       0.022400
      934.579400       0.022000
      936.329600       0.021400
      938.086300       0.020900
      939.849600       0.020600
      941.619600       0.020100
      943.396200       0.018900
      945.179600       0.017500
      946.969700       0.016800
      948.766600       0.016200
      950.570300       0.016600
      952.381000       0.017800
      954.198500       0.017900
      956.022900       0.017300
      957.854400       0.016200
      959.692900       0.014000
      961.538500       0.012500
      963.391100       0.011800
      965.251000       0.011000
      967.118000       0.010000
      968.992200       0.009000
      970.873800       0.007900
      972.762600       0.006900
      974.658900       0.006400
      976.562500       0.006000
      978.473600       0.005800
      980.392200       0.005600
      982.318300       0.005400
      984.252000       0.005200
      986.193300       0.004500
      988.142300       0.003700
      990.099000       0.002500
      992.063500       0.001500
      994.035800       0.001700
      996.015900       0.001900
      998.004000       0.002300
     1000.000000       0.002400
     1002.004000       0.002000
     1004.016100       0.001600
     1006.036200       0.001300
     1008.064500       0.001300
     1010.101000       0.001700
     1012.145700       0.001900
     1014.198800       0.001700
     1016.260200       0.001500
     1018.329900       0.001100
     1020.408200       0.001100
     1022.494900       0.001100
     1024.590200       0.001000
     1026.694000       0.000800
